     istep               E_tot               E_kin               E_pot              F_norm                Temp            Pressure
                        kJ/mol              kJ/mol              kJ/mol         kJ/(mol Å)                   K                  Pa
       0           59.33269802         43.29006883         16.04262918         10.92032865        247.93327041       4428.76919246
       1           59.93752925         40.51811925         19.41941000        174.50534123        232.05760781       2010.53001524
       2           60.77752847         33.87690233         26.90062614        303.20891136        194.02166389      -2042.96240241
       3           61.46449340         28.44146927         33.02302412        354.21851905        162.89155186      -5914.98978215
       4           61.82758051         26.83798054         34.98959997        323.55836950        153.70796273      -8472.52330279
       5           62.07370995         27.17529728         34.89841267        249.23054842        155.63986175     -10041.36896160
       6           62.53120731         26.00954758         36.52165973        224.72117237        148.96331577     -11659.88951435
       7           63.26945905         22.79950398         40.46995507        288.37829782        130.57857699     -13787.81844010
       8           64.02374899         20.69527328         43.32847571        346.95861006        118.52711083     -15957.59011952
       9           64.50758476         22.73222554         41.77535922        341.11078303        130.19325616     -17679.78933719
      10           64.75424797         27.81096476         36.94328321        269.14308384        159.28049161     -19409.71777567
      11           65.09404508         31.20353952         33.89050556        189.42427284        178.71063292     -22278.25902323
      12           65.78599867         29.27426096         36.51173771        215.58368012        167.66116235     -26724.48145509
      13           66.71572473         23.31479797         43.40092676        304.22550379        133.52979713     -31512.89490147
      14           67.50017095         18.27343201         49.22673894        354.75199403        104.65660792     -34322.66984575
      15           67.88614952         17.74180391         50.14434561        341.84194615        101.61183812     -33449.17230933
      16           68.00361473         20.62456421         47.37905051        294.72204834        118.12214195     -28971.64812309
      17           68.19863358         22.96907561         45.22955797        283.83888744        131.54975695     -22316.36072475
      18           68.63843872         22.69578810         45.94265063        333.73545438        129.98456964     -14833.70056683
      19           69.13090748         21.83936284         47.29154464        378.04527128        125.07960368      -6955.37297611
      20           69.35751563         23.82293086         45.53458476        359.88299338        136.44000389       1297.96706136
      21           69.25459291         28.94175609         40.31283682        267.30926728        165.75682213       9288.90591745
      22           69.11017940         33.29829819         35.81188121        148.44545924        190.70785037      15639.10307861
      23           69.26068373         32.59550666         36.66517706        187.69847379        186.68278395      19353.12146885
      24           69.71977020         26.72841141         42.99135879        329.13941506        153.08043234      21003.14390683
      25           70.15236757         20.11771789         50.03464969        426.31621339        115.21930372      22554.82795755
      26           70.22792566         17.35127979         52.87664587        444.69086014         99.37520682      25799.07036488
      27           69.96685216         18.83021611         51.13663606        395.36232278        107.84545249      30858.62392365
      28           69.70116537         21.05101201         48.65015336        330.19782407        120.56451729      36199.06436221
      29           69.69968257         20.97637187         48.72331070        316.58680611        120.13703416      40020.41064123
      30           69.87902040         19.46260808         50.41641232        348.64633532        111.46732267      41538.36819664
      31           69.91836263         19.92911862         49.98924401        358.85888597        114.13914761      40955.89969630
      32           69.63794673         23.93794083         45.70000590        312.29247688        137.09869531      38484.56680300
      33           69.20783923         28.85903394         40.34880530        228.35877451        165.28305122      33809.01486846
      34           68.95387987         30.38865294         38.56522693        190.29310397        174.04356958      26745.97927817
      35           68.98702819         27.16370610         41.82332209        248.08227988        155.57347610      18316.73549313
      36           69.07717724         22.34284394         46.73433329        309.08715050        127.96316843      10824.53387539
      37           68.90930993         20.41212551         48.49718442        315.90846378        116.90545129       6546.21939575
      38           68.42937192         22.73014382         45.69922810        271.78409779        130.18133366       6171.01444325
      39           67.89600844         26.58666440         41.30934404        231.50986616        152.26861104       8449.88172667
      40           67.59195550         28.54850658         39.04344892        259.86625063        163.50458181      11304.58377319
      41           67.52445104         28.18896420         39.33548684        319.70424515        161.44539089      13230.45332413
      42           67.44266469         28.09506002         39.34760467        340.89086004        160.90757767      13714.56407910
      43           67.13945853         30.36365497         36.77580356        295.63408665        173.90039983      12606.74447218
      44           66.69295074         33.72327850         32.96967224        202.38808430        193.14182103       9520.10817513
      45           66.37898505         34.63514444         31.74384062        160.91095461        198.36430994       4154.32228549
      46           66.35514825         31.20069916         35.15444909        251.83760779        178.69436546      -2806.57051409
      47           66.47159973         25.50429672         40.96730301        349.68290905        146.06961516      -9420.48142723
      48           66.42440762         21.70810415         44.71630347        386.15177645        124.32785168     -13486.03156087
      49           66.08491804         21.91790998         44.16700806        350.97406776        125.52946317     -14078.58240544
      50           65.63905984         24.30469944         41.33436040        276.82881631        139.19921542     -12205.93284714
      51           65.38116606         25.43572922         39.94543683        242.11037091        145.67691162      -9974.74884475
      52           65.39356358         24.09738159         41.29618199        288.94679285        138.01185325      -9103.62816905
      53           65.46855725         22.34183085         43.12672640        346.48410142        127.95736617     -10143.33230899
      54           65.35131545         22.75125023         42.60006522        361.42973194        130.30221542     -12852.94585353
      55           65.02050118         25.20315558         39.81734561        335.60868511        144.34490300     -16917.63749817
      56           64.69193456         26.86689191         37.82504264        309.86406923        153.87354553     -22000.72908631
      57           64.55499239         25.38463936         39.17035302        322.41306334        145.38430696     -27132.89230876
      58           64.55015003         21.59346799         42.95668204        353.58982931        123.67130113     -30402.59569829
      59           64.43479973         18.74775596         45.68704378        357.96971798        107.37318216     -29683.66667689
      60           64.05189614         19.15603807         44.89585806        316.25723265        109.71151804     -23982.30835277
      61           63.49643994         21.93473255         41.56170739        246.64358236        125.62581035     -14217.79546773
      62           63.00288737         24.20228931         38.80059806        203.38046278        138.61268649      -2722.82836807
      63           62.69104995         24.21337387         38.47767608        222.91657386        138.67617059       8060.16734485
      64           62.45437876         22.95540066         39.49897810        256.08935291        131.47143701      16566.76562920
      65           62.10248237         22.63647295         39.46600942        259.49644286        129.64485666      22173.56647522
      66           61.58524293         23.98172327         37.60351966        243.24162386        137.34944852      24741.32092343
      67           61.04652640         25.43309393         35.61343247        259.36990536        145.66181864      24434.27890697
      68           60.65605511         25.05614462         35.59991049        328.82750867        143.50293376      22030.04516681
      69           60.41535880         22.88539826         37.52996054        404.84854745        131.07051544      19134.73841175
      70           60.15657444         21.01600523         39.14056920        440.68961447        120.36402456      17669.47873641
      71           59.73220845         21.35829111         38.37391734        417.81707381        122.32438311      18779.77339438
      72           59.17955835         23.60849564         35.57106271        348.56497750        135.21187862      22052.10547875
      73           58.67658131         25.68685178         32.98972953        276.99711390        147.11515456      25752.35752655
      74           58.34526402         26.06810039         32.27716362        259.48399273        149.29866266      27880.04707929
      75           58.12828864         25.34084043         32.78744821        289.96176073        145.13345928      27141.49471175
      76           57.87363733         25.31558027         32.55805705        313.90418519        144.98878792      23187.95302157
      77           57.52095784         26.82884386         30.69211398        309.54223401        153.65563464      16296.26998784
      78           57.17322062         28.78581087         28.38740975        292.47872320        164.86368402       7132.43012661
      79           56.97853710         29.44384566         27.53469144        288.20015200        168.63241721      -3123.04197343
      80           56.96579594         28.36849659         28.59729935        296.52262412        162.47361865     -12666.99971400
      81           57.02002072         26.84602944         30.17399128        293.54972958        153.75406083     -19487.47403948
      82           57.01404175         26.40060652         30.61343523        266.33717424        151.20301011     -22245.15406106
      83           56.93944512         27.17461171         29.76483341        232.25437402        155.63593532     -20984.22572497
      84           56.89565858         27.93287167         28.96278691        230.51399534        159.97868358     -17095.35909250
      85           56.96583369         27.52888134         29.43695235        267.72209208        157.66492789     -12588.81045796
      86           57.12867743         26.10984645         31.01883097        305.76429795        149.53775301      -9262.32435919
      87           57.29866297         24.80354992         32.49511305        316.88812259        142.05625947      -8265.15515510
      88           57.43502462         24.40467402         33.03035060        301.78357913        139.77179537     -10059.80502855
      89           57.59039486         24.59713865         32.99325621        284.35083651        140.87408945     -14459.28174451
      90           57.84887652         24.49163725         33.35723927        289.71053749        140.26985599     -20572.22109313
      91           58.22899433         23.73024724         34.49874710        311.75138820        135.90918111     -26845.84291238
      92           58.66087360         22.85101284         35.80986076        321.65504185        130.87358135     -31476.87777967
      93           59.06010560         22.55108559         36.50902001        301.50375396        129.15582146     -33135.19645457
      94           59.41296677         22.78245826         36.63050851        260.38869323        130.48095177     -31568.92503871
      95           59.77787262         22.77309535         37.00477727        236.88743533        130.42732801     -27666.22769378
      96           60.20573594         21.94380048         38.26193545        264.13686113        125.67774471     -22962.30290219
      97           60.67507036         20.62586193         40.04920843        317.80469788        118.12957432     -18983.13709584
      98           61.11715216         19.73437622         41.38277594        359.60884711        113.02380818     -16814.70385758
      99           61.49583686         19.80236868         41.69346818        376.39794839        113.41321832     -16945.99324116
     100           61.84131480         20.51071130         41.33060350        374.89509703        117.47007726     -19190.62684177
     101           62.19914073         21.19313423         41.00600650        365.31000907        121.37848754     -22609.47926572
     102           62.56366963         21.61303633         40.95063330        347.49568422        123.78337400     -25613.39666038
     103           62.88035451         22.06537623         40.81497828        313.54774481        126.37404002     -26421.42389059
     104           63.11075028         22.77677042         40.33397986        264.25759299        130.44837606     -23739.62122543
     105           63.27671845         23.44554408         39.83117437        223.66650374        134.27861346     -17271.27162708
     106           63.43070935         23.52266892         39.90804042        227.33947055        134.72032714      -7777.56738316
     107           63.59301986         22.86639868         40.72662117        267.20445961        130.96170002       3243.79269648
     108           63.73454134         21.95607836         41.77846297        303.38029980        125.74806324      13987.62569321
     109           63.82132109         21.43862302         42.38269806        316.63361358        122.78446448      22708.59348127
     110           63.85910879         21.59813542         42.26097336        314.96188275        123.69803270      28059.13828129
     111           63.88120686         22.35499340         41.52621347        320.01693656        128.03275143      29438.81824583
     112           63.89864671         23.66678147         40.23186524        341.71893971        135.54569645      27223.39430421
     113           63.87780184         25.70210119         38.17570065        365.92213807        147.20249185      22661.98667386
     114           63.77381965         28.50330931         35.27051034        372.21764187        163.24572554      17405.32412539
     115           63.58025814         31.56943836         32.01081978        352.41234786        180.80622896      12900.28884862
     116           63.33703209         33.97102101         29.36601108        315.75159549        194.56070561       9972.02584027
     117           63.08753113         35.01790416         28.06962696        284.64506734        200.55647256       8732.52590241
     118           62.83441587         34.82113486         28.01328101        277.80433005        199.42952455       8704.91213050
     119           62.54588095         34.12943709         28.41644385        290.92848167        195.46799494       8988.61853564
     120           62.20622858         33.58879169         28.61743689        307.88663378        192.37158076       8438.39107987
     121           61.85025303         33.22604962         28.62420340        322.83153223        190.29406439       5966.97610512
     122           61.53453814         32.71429931         28.82023883        339.03359124        187.36313974        997.24786599
     123           61.27289446         32.05321769         29.21967677        353.89748712        183.57695666      -6150.82543661
     124           61.01456544         31.76267447         29.25189097        354.08520779        181.91294148     -14251.18092202
     125           60.70118096         32.25428807         28.44689289        327.57510312        184.72853800     -21622.12044628
     126           60.34182560         33.10878743         27.23303817        279.37566035        189.62247386     -26749.82707019
     127           60.01457413         33.23095070         26.78362343        241.22315832        190.32213409     -28689.22667273
     128           59.78598339         31.87204626         27.91393713        251.31540398        182.53934163     -27122.70084648
     129           59.64143875         29.42560423         30.21583452        294.79222494        168.52794387     -22295.44604903
     130           59.51138175         27.06915041         32.44223134        327.32649085        155.03193155     -15048.35327588
     131           59.36446190         25.62788153         33.73658037        328.22415342        146.77741690      -6855.27302545
     132           59.25510064         24.94403108         34.31106957        306.05548252        142.86083087        431.24419040
     133           59.26473788         24.42823757         34.83650032        287.72799469        139.90674983       5204.90882115
     134           59.40444752         24.04337974         35.36106778        291.27098250        137.70257083       6757.47662518
     135           59.59591542         24.44637847         35.14953695        303.56209560        140.01064741       5485.57017658
     136           59.75628678         26.04541327         33.71087350        301.38353300        149.16872775       2533.04697308
     137           59.88962271         28.09409499         31.79552772        278.80394235        160.90205069       -784.87654010
     138           60.07892169         29.00326842         31.07565326        252.30425963        166.10911894      -3343.48033301
     139           60.38590648         27.70056699         32.68533949        246.59323667        158.64821543      -4271.93409267
     140           60.77040223         24.64289060         36.12751163        264.49881549        141.13612251      -2988.11379109
     141           61.12031498         21.39272300         39.72759198        285.98888277        122.52158335        572.40954732
     142           61.36072840         19.19632506         42.16440334        299.45331431        109.94225187       5685.22300567
     143           61.52213331         18.06707467         43.45505864        312.85515704        103.47474674      10911.93780616
     144           61.69200758         17.28737310         44.40463447        338.22999476         99.00919694      14682.68233516
     145           61.90439097         16.63708797         45.26730301        369.13987592         95.28484802      16059.05235602
     146           62.09444512         16.83708528         45.25735984        382.35635503         96.43028365      15125.14111342
     147           62.17364032         18.62274674         43.55089358        358.20232318        106.65722250      12764.71987270
     148           62.14163919         21.51462695         40.62701224        296.25857814        123.21975837      10120.94873642
     149           62.10316118         23.82078706         38.28237412        226.82285525        136.42772577       8232.03481424
