     istep               E_tot               E_kin               E_pot              F_norm                Temp            Pressure        COM_momentum            CV_value           Inst_Bias            Tot_Bias
      none              kJ/mol              kJ/mol              kJ/mol          kJ/(Åmol)                   K                  Pa              gÅ/fs                                  kJ/mol              kJ/mol
       0           72.24231366         57.09824140         15.14407225         11.19878073        327.01619811       6704.46810789          0.00000000          1.11943758          0.00000000          0.00000000
       1           72.23635442         57.03344312         15.20291130         30.60097986        326.64508181       7344.36368588          0.00000000          1.11916868          0.00000000          0.00000000
       2           72.23155332         56.81373916         15.41781417         57.92110075        325.38678115       7932.01147940          0.00000000          1.11889858          0.00000000          0.00000000
       3           72.22817945         56.44080217         15.78737728         85.84236259        323.25087584       8467.24859091          0.00000000          1.11862959          0.00000000          0.00000000
       4           72.22658118         55.91788158         16.30869959        113.79780179        320.25597622       8950.59727371          0.00000000          1.11836326          0.00000000          0.00000000
       5           72.22709489         55.24968273         16.97741216        141.60743461        316.42903087       9383.03211455          0.00000000          1.11810116          0.00000000          0.00000000
       6           72.23004067         54.44232165         17.78771901        169.16147478        311.80506800       9765.96766706          0.00000000          1.11784483          0.00000000          0.00000000
       7           72.23571850         53.50326391         18.73245459        196.37123694        306.42684468      10101.24135202          0.00000000          1.11759580          0.00000000          0.00000000
       8           72.24440469         52.44124766         19.80315702        223.15670935        300.34440664      10391.09178838          0.00000000          1.11735561          0.00000000          0.00000000
       9           72.25634856         51.26619209         20.99015647        249.44251427        293.61456355      10638.13278370          0.00000000          1.11712577          0.00000000          0.00000000
      10           72.27176940         49.98909199         22.28267741        275.15641833        286.30028538      10845.32326406          0.00000000          1.11690775          0.00000000          0.00000000
      11           72.29085376         48.62189978         23.66895399        300.22877557        278.47002673      11015.93347024          0.00000000          1.11670302          0.00000000          0.00000000
      12           72.31375313         47.17739628         25.13635685        324.59235884        270.19698663      11153.50779657          0.00000000          1.11651299          0.00000000          0.00000000
      13           72.34058197         45.66905170         26.67153027        348.18236880        261.55831232      11261.82468088          0.00000000          1.11633908          0.00000000          0.00000000
      14           72.37141621         44.11087837         28.26053784        370.93652946        252.63425607      11344.85399809          0.00000000          1.11618261          0.00000000          0.00000000
      15           72.40629218         42.51727707         29.88901511        392.79522753        243.50729476      11406.71243524          0.00000000          1.11604491          0.00000000          0.00000000
      16           72.44520595         40.90287856         31.54232739        413.70167398        234.26122259      11451.61735263          0.00000000          1.11592723          0.00000000          0.00000000
      17           72.48811323         39.28238234         33.20573089        433.60207621        224.98022720      11483.83965426          0.00000000          1.11583078          0.00000000          0.00000000
      18           72.53492963         37.67039429         34.86453535        452.44581425        215.74796034      11507.65620374          0.00000000          1.11575671          0.00000000          0.00000000
      19           72.58553154         36.08126540         36.50426614        470.18561731        206.64661369      11527.30232857          0.00000000          1.11570611          0.00000000          0.00000000
      20           72.63975730         34.52893320         38.11082410        486.77773811        197.75601108      11546.92495549          0.00000000          1.11568002          0.00000000          0.00000000
      21           72.69740896         33.02676797         39.67064099        502.18212395        189.15272749      11570.53691384          0.00000000          1.11567939          0.00000000          0.00000000
      22           72.75825442         31.58742544         41.17082898        516.36258328        180.90924557      11601.97293081          0.00000000          1.11570514          0.00000000          0.00000000
      23           72.82202999         30.22270784         42.59932214        529.28694770        173.09315965      11644.84782368          0.00000000          1.11575808          0.00000000          0.00000000
      24           72.88844331         28.94343484         43.94500847        540.92722915        165.76643675      11702.51736952          0.00000000          1.11583896          0.00000000          0.00000000
      25           72.95717669         27.75932604         45.19785065        551.25977245        158.98474347      11778.04230167          0.00000000          1.11594847          0.00000000          0.00000000
      26           73.02789064         26.67889634         46.34899430        560.26540360        152.79684692      11874.15584647          0.00000000          1.11608720          0.00000000          0.00000000
      27           73.10022782         25.70936559         47.39086222        567.92957452        147.24409694      11993.23517275          0.00000000          1.11625566          0.00000000          0.00000000
      28           73.17381708         24.85658344         48.31723364        574.24250508        142.35999594      12137.27708060          0.00000000          1.11645429          0.00000000          0.00000000
      29           73.24827778         24.12497045         49.12330733        579.19932370        138.16986164      12307.87820667          0.00000000          1.11668344          0.00000000          0.00000000
      30           73.32322415         23.51747617         49.80574798        582.80020790        134.69058691      12506.21997004          0.00000000          1.11694339          0.00000000          0.00000000
      31           73.39826982         23.03555472         50.36271510        585.05052671        131.93049978      12733.05842692          0.00000000          1.11723431          0.00000000          0.00000000
      32           73.47303226         22.67915811         50.79387416        585.96098724        129.88932545      12988.71914453          0.00000000          1.11755630          0.00000000          0.00000000
      33           73.54713730         22.44674757         51.10038973        585.54778812        128.55825098      13273.09714521          0.00000000          1.11790938          0.00000000          0.00000000
      34           73.62022347         22.33532264         51.28490083        583.83278310        127.92009200      13585.66191145          0.00000000          1.11829346          0.00000000          0.00000000
      35           73.69194626         22.34046782         51.35147844        580.84365863        127.94955975      13925.46738270          0.00000000          1.11870839          0.00000000          0.00000000
      36           73.76198218         22.45641612         51.30556606        576.61413008        128.61362526      14291.16681516          0.00000000          1.11915393          0.00000000          0.00000000
      37           73.83003255         22.67612893         51.15390362        571.18416195        129.87197661      14681.03231788          0.00000000          1.11962974          0.00000000          0.00000000
      38           73.89582704         22.99139116         50.90443588        564.60021795        131.67756381      15092.97882254          0.00000000          1.12013542          0.00000000          0.00000000
      39           73.95912685         23.39292054         50.56620631        556.91554817        133.97722503      15524.59219109          0.00000000          1.12067046          0.00000000          0.00000000
      40           74.01972755         23.87048989         50.14923765        548.19052065        136.71238658      15973.16111605          0.00000000          1.12123431          0.00000000          0.00000000
      41           74.07746147         24.41306078         49.66440069        538.49300557        139.81982847      16435.71242221          0.00000000          1.12182629          0.00000000          0.00000000
      42           74.13219972         25.00892700         49.12327271        527.89882006        143.23250641      16909.04933785          0.00000000          1.12244570          0.00000000          0.00000000
      43           74.18385369         25.64586629         48.53798741        516.49224093        146.88042020      17389.79226743          0.00000000          1.12309172          0.00000000          0.00000000
      44           74.23237610         26.31129816         47.92107794        504.36659022        150.69151834      17874.42156748          0.00000000          1.12376350          0.00000000          0.00000000
      45           74.27776151         26.99244633         47.28531518        491.62489406        154.59262769      18359.32180286          0.00000000          1.12446008          0.00000000          0.00000000
      46           74.32004642         27.67650340         46.64354302        478.38060712        158.51039713      18840.82694264          0.00000000          1.12518047          0.00000000          0.00000000
      47           74.35930876         28.35079611         46.00851265        464.75838167        162.37224354      19315.26594277          0.00000000          1.12592360          0.00000000          0.00000000
      48           74.39566693         29.00294888         45.39271805        450.89483905        166.10728881      19779.00815813          0.00000000          1.12668836          0.00000000          0.00000000
      49           74.42927834         29.62104380         44.80823453        436.93926998        169.64727617      20228.50802793          0.00000000          1.12747357          0.00000000          0.00000000
      50           74.46033748         30.19377516         44.26656232        423.05414543        172.92745481      20660.34848694          0.00000000          1.12827800          0.00000000          0.00000000
      51           74.48907353         30.71059636         43.77847717        409.41525959        175.88742166      21071.28257011          0.00000000          1.12910039          0.00000000          0.00000000
      52           74.51574752         31.16185763         43.35388989        396.21125300        178.47191015      21458.27269983          0.00000000          1.12993942          0.00000000          0.00000000
      53           74.54064914         31.53893281         43.00171633        383.64218349        180.63151589      21818.52717259          0.00000000          1.13079374          0.00000000          0.00000000
      54           74.56409314         31.83433339         42.72975976        371.91674614        182.32335039      22149.53339592          0.00000000          1.13166198          0.00000000          0.00000000
      55           74.58641549         32.04180869         42.54460680        361.24772517        183.51161438      22449.08746536          0.00000000          1.13254273          0.00000000          0.00000000
      56           74.60796917         32.15643065         42.45153851        351.84534330        184.16808362      22715.31971614          0.00000000          1.13343454          0.00000000          0.00000000
      57           74.62911982         32.17466227         42.45445755        343.90841431        184.27250073      22946.71593248          0.00000000          1.13433598          0.00000000          0.00000000
      58           74.65024121         32.09440871         42.55583250        337.61363517        183.81286812      23142.13395105          0.00000000          1.13524557          0.00000000          0.00000000
      59           74.67171059         31.91505049         42.75666009        333.10393663        182.78563785      23300.81545093          0.00000000          1.13616184          0.00000000          0.00000000
      60           74.69390393         31.63745817         43.05644575        330.47739683        181.19579580      23422.39278165          0.00000000          1.13708332          0.00000000          0.00000000
      61           74.71719127         31.26398833         43.45320293        329.77856594        179.05683873      23506.89074170          0.00000000          1.13800852          0.00000000          0.00000000
      62           74.74193204         30.79846084         43.94347119        330.99390883        176.39064400      23554.72328229          0.00000000          1.13893597          0.00000000          0.00000000
      63           74.76847053         30.24611757         44.52235295        334.05236933        173.22723316      23566.68517361          0.00000000          1.13986421          0.00000000          0.00000000
      64           74.79713152         29.61356302         45.18356849        338.83098293        169.60443184      23543.93873371          0.00000000          1.14079179          0.00000000          0.00000000
      65           74.82821615         28.90868747         45.91952868        345.16440855        165.56742969      23487.99578094          0.00000000          1.14171728          0.00000000          0.00000000
      66           74.86199805         28.14057356         46.72142449        352.85659819        161.16824535      23400.69503133          0.00000000          1.14263928          0.00000000          0.00000000
      67           74.89871981         27.31938738         47.57933243        361.69274456        156.46510251      23284.17521878          0.00000000          1.14355641          0.00000000          0.00000000
      68           74.93858977         26.45625522         48.48233455        371.45003945        151.52172442      23140.84427035          0.00000000          1.14446732          0.00000000          0.00000000
      69           74.98177932         25.56312768         49.41865164        381.90638885        146.40655511      22973.34491883          0.00000000          1.14537071          0.00000000          0.00000000
      70           75.02842051         24.65263242         50.37578809        392.84681802        141.19191641      22784.51718049          0.00000000          1.14626531          0.00000000          0.00000000
      71           75.07860427         23.73791756         51.34068670        404.06772051        135.95311101      22577.35816633          0.00000000          1.14714990          0.00000000          0.00000000
      72           75.13237898         22.83248752         52.29989146        415.37932892        130.76748213      22354.97973015          0.00000000          1.14802331          0.00000000          0.00000000
      73           75.18974972         21.95003323         53.23971650        426.60685205        125.71344121      22120.56448582          0.00000000          1.14888441          0.00000000          0.00000000
      74           75.25067792         21.10425882         54.14641910        437.59069148        120.86947536      21877.32074819          0.00000000          1.14973213          0.00000000          0.00000000
      75           75.31508155         20.30870692         55.00637463        448.18607529        116.31314663      21628.43696853          0.00000000          1.15056548          0.00000000          0.00000000
      76           75.38283596         19.57658460         55.80625136        458.26236088        112.12009529      21377.03624348          0.00000000          1.15138351          0.00000000          0.00000000
      77           75.45377510         18.92059221         56.53318289        467.70218214        108.36305951      21126.13147891          0.00000000          1.15218532          0.00000000          0.00000000
      78           75.52769334         18.35275715         57.17493619        476.40055515        105.11092323      20878.58178427          0.00000000          1.15297012          0.00000000          0.00000000
      79           75.60434775         17.88427465         57.72007311        484.26401161        102.42780439      20637.05066076          0.00000000          1.15373716          0.00000000          0.00000000
      80           75.68346086         17.52535755         58.15810331        491.20979813        100.37219457      20403.96652701          0.00000000          1.15448576          0.00000000          0.00000000
      81           75.76472381         17.28509700         58.47962681        497.16515918         98.99616108      20181.48610006          0.00000000          1.15521532          0.00000000          0.00000000
      82           75.84780000         17.17133576         58.67646423        502.06670868         98.34462147      19971.46111607          0.00000000          1.15592532          0.00000000          0.00000000
      83           75.93232897         17.19055583         58.74177314        505.85988794         98.45469971      19775.40883709          0.00000000          1.15661531          0.00000000          0.00000000
      84           76.01793067         17.34778171         58.67014896        508.49850392         99.35517244      19594.48674495          0.00000000          1.15728492          0.00000000          0.00000000
      85           76.10420997         17.64650074         58.45770923        509.94433991        101.06601255      19429.47177410          0.00000000          1.15793385          0.00000000          0.00000000
      86           76.19076137         18.08860143         58.10215993        510.16683097        103.59803603      19280.74438067          0.00000000          1.15856190          0.00000000          0.00000000
      87           76.27717384         18.67433075         57.60284309        509.14279683        106.95265727      19148.27768681          0.00000000          1.15916892          0.00000000          0.00000000
      88           76.36303581         19.40227087         56.96076494        506.85622642        111.12175610      19031.63187790          0.00000000          1.15975486          0.00000000          0.00000000
      89           76.44794013         20.26933596         56.17860417        503.29810967        116.08765909      18929.95396620          0.00000000          1.16031974          0.00000000          0.00000000
      90           76.53148904         21.27078893         55.26070011        498.46631424        121.82323579      18841.98296864          0.00000000          1.16086367          0.00000000          0.00000000
      91           76.61329903         22.40027828         54.21302075        492.36550669        128.29210953      18766.06047989          0.00000000          1.16138682          0.00000000          0.00000000
